sample,code,subtype,chan,num,aux_hex
18,28,0,0,0,284e00
77,1,0,0,0,
370,1,0,0,0,
662,1,0,0,0,
946,1,0,0,0,
1231,1,0,0,0,
1515,1,0,0,0,
1809,1,0,0,0,
2044,8,0,0,0,
2402,1,0,0,0,
2706,1,0,0,0,
2998,1,0,0,0,
3282,1,0,0,0,
3560,1,0,0,0,
3862,1,0,0,0,
4170,1,0,0,0,
4466,1,0,0,0,
4764,1,0,0,0,
5060,1,0,0,0,
5346,1,0,0,0,
5633,1,0,0,0,
5918,1,0,0,0,
6214,1,0,0,0,
6527,1,0,0,0,
6823,1,0,0,0,
7106,1,0,0,0,
7391,1,0,0,0,
7670,1,0,0,0,
7953,1,0,0,0,
8245,1,0,0,0,
8539,1,0,0,0,
8837,1,0,0,0,
9141,1,0,0,0,
9431,1,0,0,0,
9710,1,0,0,0,
9998,1,0,0,0,
10282,1,0,0,0,
10591,1,0,0,0,
10894,1,0,0,0,
11191,1,0,0,0,
11480,1,0,0,0,
11781,1,0,0,0,
12066,1,0,0,0,
12350,1,0,0,0,
12645,1,0,0,0,
12949,1,0,0,0,
13266,1,0,0,0,
13562,1,0,0,0,
13842,1,0,0,0,
14131,1,0,0,0,
14423,1,0,0,0,
14710,1,0,0,0,
15011,1,0,0,0,
15310,1,0,0,0,
15607,1,0,0,0,
15899,1,0,0,0,
16183,1,0,0,0,
16464,1,0,0,0,
16755,1,0,0,0,
17058,1,0,0,0,
17358,1,0,0,0,
17657,1,0,0,0,
17947,1,0,0,0,
18227,1,0,0,0,
18514,1,0,0,0,
18795,1,0,0,0,
19080,1,0,0,0,
19388,1,0,0,0,
19693,1,0,0,0,
19989,1,0,0,0,
20271,1,0,0,0,
20554,1,0,0,0,
20837,1,0,0,0,
21131,1,0,0,0,
21423,1,0,0,0,
21729,1,0,0,0,
22029,1,0,0,0,
22321,1,0,0,0,
22603,1,0,0,0,
22881,1,0,0,0,
23164,1,0,0,0,
23453,1,0,0,0,
23756,1,0,0,0,
24053,1,0,0,0,
24345,1,0,0,0,
24625,1,0,0,0,
24913,1,0,0,0,
25197,1,0,0,0,
25485,1,0,0,0,
25779,1,0,0,0,
26088,1,0,0,0,
26387,1,0,0,0,
26670,1,0,0,0,
26952,1,0,0,0,
27237,1,0,0,0,
27536,1,0,0,0,
27833,1,0,0,0,
28132,1,0,0,0,
28431,1,0,0,0,
28727,1,0,0,0,
29014,1,0,0,0,
29294,1,0,0,0,
29580,1,0,0,0,
29873,1,0,0,0,
30182,1,0,0,0,
30487,1,0,0,0,
30779,1,0,0,0,
31065,1,0,0,0,
31348,1,0,0,0,
31635,1,0,0,0,
31927,1,0,0,0,
32224,1,0,0,0,
32529,1,0,0,0,
32836,1,0,0,0,
33127,1,0,0,0,
33403,1,0,0,0,
33691,1,0,0,0,
33980,1,0,0,0,
34274,1,0,0,0,
34575,1,0,0,0,
34870,1,0,0,0,
35168,1,0,0,0,
35455,1,0,0,0,
35736,1,0,0,0,
36016,1,0,0,0,
36309,1,0,0,0,
36605,1,0,0,0,
36916,1,0,0,0,
37215,1,0,0,0,
37499,1,0,0,0,
37782,1,0,0,0,
38071,1,0,0,0,
38356,1,0,0,0,
38651,1,0,0,0,
38950,1,0,0,0,
39252,1,0,0,0,
39547,1,0,0,0,
39825,1,0,0,0,
40096,1,0,0,0,
40382,1,0,0,0,
40677,1,0,0,0,
40970,1,0,0,0,
41271,1,0,0,0,
41567,1,0,0,0,
41849,1,0,0,0,
42117,1,0,0,0,
42416,1,0,0,0,
42697,1,0,0,0,
42996,1,0,0,0,
43307,1,0,0,0,
43603,1,0,0,0,
43892,1,0,0,0,
44172,1,0,0,0,
44455,1,0,0,0,
44743,1,0,0,0,
45030,1,0,0,0,
45323,1,0,0,0,
45628,1,0,0,0,
45925,1,0,0,0,
46204,1,0,0,0,
46478,1,0,0,0,
46759,1,0,0,0,
47037,1,0,0,0,
47334,1,0,0,0,
47632,1,0,0,0,
47919,1,0,0,0,
48202,1,0,0,0,
48486,1,0,0,0,
48766,1,0,0,0,
49040,1,0,0,0,
49323,1,0,0,0,
49618,1,0,0,0,
49923,1,0,0,0,
50214,1,0,0,0,
50491,1,0,0,0,
50771,1,0,0,0,
51056,1,0,0,0,
51339,1,0,0,0,
51626,1,0,0,0,
51921,1,0,0,0,
52216,1,0,0,0,
52506,1,0,0,0,
52784,1,0,0,0,
53063,1,0,0,0,
53341,1,0,0,0,
53631,1,0,0,0,
53923,1,0,0,0,
54219,1,0,0,0,
54507,1,0,0,0,
54784,1,0,0,0,
55064,1,0,0,0,
55343,1,0,0,0,
55625,1,0,0,0,
55908,1,0,0,0,
56207,1,0,0,0,
56502,1,0,0,0,
56784,1,0,0,0,
57055,1,0,0,0,
57333,1,0,0,0,
57615,1,0,0,0,
57900,1,0,0,0,
58192,1,0,0,0,
58490,1,0,0,0,
58788,1,0,0,0,
59077,1,0,0,0,
59354,1,0,0,0,
59631,1,0,0,0,
59919,1,0,0,0,
60214,1,0,0,0,
60515,1,0,0,0,
60817,1,0,0,0,
61105,1,0,0,0,
61391,1,0,0,0,
61680,1,0,0,0,
61963,1,0,0,0,
62247,1,0,0,0,
62547,1,0,0,0,
62852,1,0,0,0,
63154,1,0,0,0,
63438,1,0,0,0,
63711,1,0,0,0,
63998,1,0,0,0,
64288,1,0,0,0,
64581,1,0,0,0,
64876,1,0,0,0,
65174,1,0,0,0,
65464,1,0,0,0,
65750,1,0,0,0,
66030,1,0,0,0,
66307,1,0,0,0,
66604,1,0,0,0,
66792,8,0,0,0,
67130,1,0,0,0,
67434,1,0,0,0,
67728,1,0,0,0,
68007,1,0,0,0,
68302,1,0,0,0,
68594,1,0,0,0,
68886,1,0,0,0,
69191,1,0,0,0,
69503,1,0,0,0,
69796,1,0,0,0,
70073,1,0,0,0,
70357,1,0,0,0,
70643,1,0,0,0,
70941,1,0,0,0,
71240,1,0,0,0,
71539,1,0,0,0,
71845,1,0,0,0,
72138,1,0,0,0,
72417,1,0,0,0,
72703,1,0,0,0,
72998,1,0,0,0,
73301,1,0,0,0,
73611,1,0,0,0,
73911,1,0,0,0,
74196,1,0,0,0,
74483,1,0,0,0,
74767,1,0,0,0,
74986,8,0,0,0,
75332,1,0,0,0,
75632,1,0,0,0,
75934,1,0,0,0,
76233,1,0,0,0,
76515,1,0,0,0,
76785,1,0,0,0,
77074,1,0,0,0,
77366,1,0,0,0,
77663,1,0,0,0,
77954,1,0,0,0,
78251,1,0,0,0,
78539,1,0,0,0,
78824,1,0,0,0,
79100,1,0,0,0,
79386,1,0,0,0,
79689,1,0,0,0,
79991,1,0,0,0,
80290,1,0,0,0,
80583,1,0,0,0,
80868,1,0,0,0,
81152,1,0,0,0,
81439,1,0,0,0,
81730,1,0,0,0,
82030,1,0,0,0,
82335,1,0,0,0,
82636,1,0,0,0,
82927,1,0,0,0,
83209,1,0,0,0,
83492,1,0,0,0,
83794,1,0,0,0,
84103,1,0,0,0,
84407,1,0,0,0,
84709,1,0,0,0,
85010,1,0,0,0,
85303,1,0,0,0,
85580,1,0,0,0,
85870,1,0,0,0,
86171,1,0,0,0,
86478,1,0,0,0,
86780,1,0,0,0,
87079,1,0,0,0,
87364,1,0,0,0,
87652,1,0,0,0,
87941,1,0,0,0,
88232,1,0,0,0,
88530,1,0,0,0,
88834,1,0,0,0,
89135,1,0,0,0,
89421,1,0,0,0,
89703,1,0,0,0,
89988,1,0,0,0,
90286,1,0,0,0,
90590,1,0,0,0,
90885,1,0,0,0,
91190,1,0,0,0,
91481,1,0,0,0,
91761,1,0,0,0,
92046,1,0,0,0,
92338,1,0,0,0,
92633,1,0,0,0,
92944,1,0,0,0,
93246,1,0,0,0,
93534,1,0,0,0,
93824,1,0,0,0,
94102,1,0,0,0,
94395,1,0,0,0,
94693,1,0,0,0,
94996,1,0,0,0,
95298,1,0,0,0,
95606,1,0,0,0,
95893,1,0,0,0,
96171,1,0,0,0,
96450,1,0,0,0,
96746,1,0,0,0,
97050,1,0,0,0,
97348,1,0,0,0,
97644,1,0,0,0,
97936,1,0,0,0,
98228,1,0,0,0,
98508,1,0,0,0,
98789,1,0,0,0,
99084,1,0,0,0,
99382,1,0,0,0,
99579,8,0,0,0,
99930,1,0,0,0,
100218,1,0,0,0,
100496,1,0,0,0,
100781,1,0,0,0,
101071,1,0,0,0,
101361,1,0,0,0,
101653,1,0,0,0,
101941,1,0,0,0,
102234,1,0,0,0,
102516,1,0,0,0,
102793,1,0,0,0,
103074,1,0,0,0,
103371,1,0,0,0,
103669,1,0,0,0,
103964,1,0,0,0,
104261,1,0,0,0,
104545,1,0,0,0,
104830,1,0,0,0,
105118,1,0,0,0,
105407,1,0,0,0,
105707,1,0,0,0,
106015,1,0,0,0,
106314,1,0,0,0,
106600,1,0,0,0,
106882,1,0,0,0,
107159,1,0,0,0,
107453,1,0,0,0,
107750,1,0,0,0,
108045,1,0,0,0,
108342,1,0,0,0,
108643,1,0,0,0,
108926,1,0,0,0,
109199,1,0,0,0,
109486,1,0,0,0,
109772,1,0,0,0,
110076,1,0,0,0,
110374,1,0,0,0,
110673,1,0,0,0,
110963,1,0,0,0,
111244,1,0,0,0,
111524,1,0,0,0,
111810,1,0,0,0,
112108,1,0,0,0,
112405,1,0,0,0,
112710,1,0,0,0,
113000,1,0,0,0,
113281,1,0,0,0,
113562,1,0,0,0,
113850,1,0,0,0,
114142,1,0,0,0,
114428,1,0,0,0,
114716,1,0,0,0,
115000,1,0,0,0,
115280,1,0,0,0,
115547,1,0,0,0,
115815,1,0,0,0,
116084,1,0,0,0,
116369,1,0,0,0,
116654,1,0,0,0,
116939,1,0,0,0,
117213,1,0,0,0,
117494,1,0,0,0,
117766,1,0,0,0,
118044,1,0,0,0,
118323,1,0,0,0,
118607,1,0,0,0,
118911,1,0,0,0,
119215,1,0,0,0,
119509,1,0,0,0,
119791,1,0,0,0,
120077,1,0,0,0,
120376,1,0,0,0,
120676,1,0,0,0,
120990,1,0,0,0,
121300,1,0,0,0,
121604,1,0,0,0,
121889,1,0,0,0,
122170,1,0,0,0,
122460,1,0,0,0,
122750,1,0,0,0,
123050,1,0,0,0,
123360,1,0,0,0,
123664,1,0,0,0,
123936,1,0,0,0,
124221,1,0,0,0,
124507,1,0,0,0,
124775,1,0,0,0,
125060,1,0,0,0,
125355,1,0,0,0,
125648,1,0,0,0,
125926,1,0,0,0,
126203,1,0,0,0,
126476,1,0,0,0,
126746,1,0,0,0,
127025,1,0,0,0,
127313,1,0,0,0,
127603,1,0,0,0,
127892,1,0,0,0,
128085,8,0,0,0,
128423,1,0,0,0,
128698,1,0,0,0,
128958,1,0,0,0,
129230,1,0,0,0,
129519,1,0,0,0,
129798,1,0,0,0,
130057,1,0,0,0,
130318,1,0,0,0,
130568,1,0,0,0,
130818,1,0,0,0,
131073,1,0,0,0,
131326,1,0,0,0,
131584,1,0,0,0,
131851,1,0,0,0,
132122,1,0,0,0,
132381,1,0,0,0,
132629,1,0,0,0,
132883,1,0,0,0,
133132,1,0,0,0,
133390,1,0,0,0,
133662,1,0,0,0,
133933,1,0,0,0,
134197,1,0,0,0,
134463,1,0,0,0,
134737,1,0,0,0,
134990,1,0,0,0,
135243,1,0,0,0,
135504,1,0,0,0,
135780,1,0,0,0,
136061,1,0,0,0,
136350,1,0,0,0,
136630,1,0,0,0,
136899,1,0,0,0,
137170,1,0,0,0,
137449,1,0,0,0,
137729,1,0,0,0,
138008,1,0,0,0,
138304,1,0,0,0,
138598,1,0,0,0,
138888,1,0,0,0,
139164,1,0,0,0,
139440,1,0,0,0,
139719,1,0,0,0,
140009,1,0,0,0,
140302,1,0,0,0,
140599,1,0,0,0,
140881,1,0,0,0,
141152,1,0,0,0,
141423,1,0,0,0,
141684,1,0,0,0,
141943,1,0,0,0,
142207,1,0,0,0,
142479,1,0,0,0,
142747,1,0,0,0,
143010,1,0,0,0,
143265,1,0,0,0,
143515,1,0,0,0,
143766,1,0,0,0,
144025,1,0,0,0,
144286,1,0,0,0,
144557,1,0,0,0,
144832,1,0,0,0,
145111,1,0,0,0,
145381,1,0,0,0,
145647,1,0,0,0,
145902,1,0,0,0,
146170,1,0,0,0,
146445,1,0,0,0,
146737,1,0,0,0,
147013,1,0,0,0,
147290,1,0,0,0,
147565,1,0,0,0,
147832,1,0,0,0,
148099,1,0,0,0,
148363,1,0,0,0,
148637,1,0,0,0,
148916,1,0,0,0,
149204,1,0,0,0,
149488,1,0,0,0,
149768,1,0,0,0,
150030,1,0,0,0,
150303,1,0,0,0,
150575,1,0,0,0,
150849,1,0,0,0,
151122,1,0,0,0,
151407,1,0,0,0,
151700,1,0,0,0,
151974,1,0,0,0,
152237,1,0,0,0,
152510,1,0,0,0,
152781,1,0,0,0,
153067,1,0,0,0,
153362,1,0,0,0,
153644,1,0,0,0,
153922,1,0,0,0,
154193,1,0,0,0,
154470,1,0,0,0,
154741,1,0,0,0,
155009,1,0,0,0,
155291,1,0,0,0,
155588,1,0,0,0,
155865,1,0,0,0,
156132,1,0,0,0,
156395,1,0,0,0,
156648,1,0,0,0,
156906,1,0,0,0,
157168,1,0,0,0,
157430,1,0,0,0,
157695,1,0,0,0,
157960,1,0,0,0,
158233,1,0,0,0,
158489,1,0,0,0,
158730,1,0,0,0,
158974,1,0,0,0,
159225,1,0,0,0,
159479,1,0,0,0,
159738,1,0,0,0,
160001,1,0,0,0,
160260,1,0,0,0,
160507,1,0,0,0,
160755,1,0,0,0,
161005,1,0,0,0,
161254,1,0,0,0,
161499,1,0,0,0,
161764,1,0,0,0,
162035,1,0,0,0,
162308,1,0,0,0,
162573,1,0,0,0,
162835,1,0,0,0,
163093,1,0,0,0,
163362,1,0,0,0,
163629,1,0,0,0,
163899,1,0,0,0,
164182,1,0,0,0,
164461,1,0,0,0,
164731,1,0,0,0,
164991,1,0,0,0,
165246,1,0,0,0,
165499,1,0,0,0,
165756,1,0,0,0,
166032,1,0,0,0,
166301,1,0,0,0,
166570,1,0,0,0,
166841,1,0,0,0,
167111,1,0,0,0,
167371,1,0,0,0,
167641,1,0,0,0,
167912,1,0,0,0,
168191,1,0,0,0,
168484,1,0,0,0,
168784,1,0,0,0,
169074,1,0,0,0,
169349,1,0,0,0,
169629,1,0,0,0,
169907,1,0,0,0,
170201,1,0,0,0,
170495,1,0,0,0,
170719,8,0,0,0,
171074,1,0,0,0,
171371,1,0,0,0,
171652,1,0,0,0,
171921,1,0,0,0,
172199,1,0,0,0,
172481,1,0,0,0,
172776,1,0,0,0,
173067,1,0,0,0,
173351,1,0,0,0,
173629,1,0,0,0,
173907,1,0,0,0,
174176,1,0,0,0,
174451,1,0,0,0,
174737,1,0,0,0,
175023,1,0,0,0,
175323,1,0,0,0,
175608,1,0,0,0,
175877,1,0,0,0,
176145,1,0,0,0,
176427,1,0,0,0,
176698,1,0,0,0,
176975,1,0,0,0,
177248,1,0,0,0,
177523,1,0,0,0,
177797,1,0,0,0,
178059,1,0,0,0,
178316,1,0,0,0,
178578,1,0,0,0,
178841,1,0,0,0,
179117,1,0,0,0,
179388,1,0,0,0,
179662,1,0,0,0,
179927,1,0,0,0,
180182,1,0,0,0,
180443,1,0,0,0,
180705,1,0,0,0,
180964,1,0,0,0,
181236,1,0,0,0,
181523,1,0,0,0,
181811,1,0,0,0,
182084,1,0,0,0,
182353,1,0,0,0,
182624,1,0,0,0,
182896,1,0,0,0,
183181,1,0,0,0,
183475,1,0,0,0,
183778,1,0,0,0,
184071,1,0,0,0,
184361,1,0,0,0,
184649,1,0,0,0,
184933,1,0,0,0,
185213,1,0,0,0,
185510,1,0,0,0,
185828,1,0,0,0,
186137,1,0,0,0,
186428,1,0,0,0,
186717,1,0,0,0,
187005,1,0,0,0,
187291,1,0,0,0,
187577,1,0,0,0,
187872,1,0,0,0,
188179,1,0,0,0,
188481,1,0,0,0,
188763,1,0,0,0,
189043,1,0,0,0,
189330,1,0,0,0,
189624,1,0,0,0,
189929,1,0,0,0,
190228,1,0,0,0,
190529,1,0,0,0,
190820,1,0,0,0,
191112,1,0,0,0,
191395,1,0,0,0,
191674,1,0,0,0,
191977,1,0,0,0,
192281,1,0,0,0,
192575,1,0,0,0,
192862,1,0,0,0,
193146,1,0,0,0,
193423,1,0,0,0,
193703,1,0,0,0,
193994,1,0,0,0,
194281,1,0,0,0,
194574,1,0,0,0,
194868,1,0,0,0,
195156,1,0,0,0,
195426,1,0,0,0,
195701,1,0,0,0,
195978,1,0,0,0,
196268,1,0,0,0,
196560,1,0,0,0,
196847,1,0,0,0,
197132,1,0,0,0,
197414,1,0,0,0,
197685,1,0,0,0,
197950,1,0,0,0,
198224,1,0,0,0,
198504,1,0,0,0,
198791,1,0,0,0,
199075,1,0,0,0,
199353,1,0,0,0,
199619,1,0,0,0,
199894,1,0,0,0,
200161,1,0,0,0,
200434,1,0,0,0,
200714,1,0,0,0,
200993,1,0,0,0,
201271,1,0,0,0,
201545,1,0,0,0,
201806,1,0,0,0,
202067,1,0,0,0,
202339,1,0,0,0,
202614,1,0,0,0,
202896,1,0,0,0,
203182,1,0,0,0,
203468,1,0,0,0,
203741,1,0,0,0,
204021,1,0,0,0,
204299,1,0,0,0,
204574,1,0,0,0,
204854,1,0,0,0,
205158,1,0,0,0,
205459,1,0,0,0,
205737,1,0,0,0,
206016,1,0,0,0,
206288,1,0,0,0,
206567,1,0,0,0,
206844,1,0,0,0,
207130,1,0,0,0,
207421,1,0,0,0,
207724,1,0,0,0,
208004,1,0,0,0,
208277,1,0,0,0,
208548,1,0,0,0,
208822,1,0,0,0,
209100,1,0,0,0,
209392,1,0,0,0,
209683,1,0,0,0,
209973,1,0,0,0,
210256,1,0,0,0,
210534,1,0,0,0,
210809,1,0,0,0,
211085,1,0,0,0,
211364,1,0,0,0,
211654,1,0,0,0,
211951,1,0,0,0,
212228,1,0,0,0,
212502,1,0,0,0,
212777,1,0,0,0,
213058,1,0,0,0,
213326,1,0,0,0,
213606,1,0,0,0,
213894,1,0,0,0,
214181,1,0,0,0,
214465,1,0,0,0,
214738,1,0,0,0,
215005,1,0,0,0,
215280,1,0,0,0,
215563,1,0,0,0,
215850,1,0,0,0,
216141,1,0,0,0,
216431,1,0,0,0,
216710,1,0,0,0,
216990,1,0,0,0,
217268,1,0,0,0,
217547,1,0,0,0,
217824,1,0,0,0,
218122,1,0,0,0,
218416,1,0,0,0,
218703,1,0,0,0,
218972,1,0,0,0,
219246,1,0,0,0,
219529,1,0,0,0,
219813,1,0,0,0,
220098,1,0,0,0,
220391,1,0,0,0,
220691,1,0,0,0,
220977,1,0,0,0,
221252,1,0,0,0,
221527,1,0,0,0,
221804,1,0,0,0,
222081,1,0,0,0,
222375,1,0,0,0,
222666,1,0,0,0,
222951,1,0,0,0,
223227,1,0,0,0,
223507,1,0,0,0,
223783,1,0,0,0,
224047,1,0,0,0,
224328,1,0,0,0,
224621,1,0,0,0,
224915,1,0,0,0,
225195,1,0,0,0,
225472,1,0,0,0,
225743,1,0,0,0,
226024,1,0,0,0,
226296,1,0,0,0,
226573,1,0,0,0,
226863,1,0,0,0,
227144,1,0,0,0,
227427,1,0,0,0,
227702,1,0,0,0,
227975,1,0,0,0,
228238,1,0,0,0,
228516,1,0,0,0,
228808,1,0,0,0,
229094,1,0,0,0,
229376,1,0,0,0,
229660,1,0,0,0,
229936,1,0,0,0,
230214,1,0,0,0,
230485,1,0,0,0,
230761,1,0,0,0,
231058,1,0,0,0,
231357,1,0,0,0,
231638,1,0,0,0,
231913,1,0,0,0,
232190,1,0,0,0,
232459,1,0,0,0,
232732,1,0,0,0,
233016,1,0,0,0,
233301,1,0,0,0,
233588,1,0,0,0,
233875,1,0,0,0,
234151,1,0,0,0,
234415,1,0,0,0,
234684,1,0,0,0,
234959,1,0,0,0,
235249,1,0,0,0,
235547,1,0,0,0,
235828,1,0,0,0,
236108,1,0,0,0,
236390,1,0,0,0,
236664,1,0,0,0,
236927,1,0,0,0,
237205,1,0,0,0,
237495,1,0,0,0,
237783,1,0,0,0,
238070,1,0,0,0,
238343,1,0,0,0,
238610,1,0,0,0,
238884,1,0,0,0,
239157,1,0,0,0,
239433,1,0,0,0,
239717,1,0,0,0,
239996,1,0,0,0,
240266,1,0,0,0,
240541,1,0,0,0,
240809,1,0,0,0,
241065,1,0,0,0,
241318,1,0,0,0,
241588,1,0,0,0,
241855,1,0,0,0,
242114,1,0,0,0,
242373,1,0,0,0,
242632,1,0,0,0,
242879,1,0,0,0,
243132,1,0,0,0,
243388,1,0,0,0,
243643,1,0,0,0,
243908,1,0,0,0,
244191,1,0,0,0,
244461,1,0,0,0,
244729,1,0,0,0,
244984,1,0,0,0,
245246,1,0,0,0,
245515,1,0,0,0,
245791,1,0,0,0,
246065,1,0,0,0,
246352,1,0,0,0,
246647,1,0,0,0,
246935,1,0,0,0,
247201,1,0,0,0,
247469,1,0,0,0,
247742,1,0,0,0,
248017,1,0,0,0,
248300,1,0,0,0,
248586,1,0,0,0,
248878,1,0,0,0,
249158,1,0,0,0,
249433,1,0,0,0,
249706,1,0,0,0,
249988,1,0,0,0,
250273,1,0,0,0,
250558,1,0,0,0,
250858,1,0,0,0,
251160,1,0,0,0,
251441,1,0,0,0,
251710,1,0,0,0,
251994,1,0,0,0,
252285,1,0,0,0,
252584,1,0,0,0,
252868,1,0,0,0,
253159,1,0,0,0,
253456,1,0,0,0,
253741,1,0,0,0,
254010,1,0,0,0,
254282,1,0,0,0,
254585,1,0,0,0,
254891,1,0,0,0,
255170,1,0,0,0,
255453,1,0,0,0,
255738,1,0,0,0,
256027,1,0,0,0,
256295,1,0,0,0,
256572,1,0,0,0,
256860,1,0,0,0,
257157,1,0,0,0,
257439,1,0,0,0,
257710,1,0,0,0,
257966,1,0,0,0,
258226,1,0,0,0,
258478,1,0,0,0,
258737,1,0,0,0,
259005,1,0,0,0,
259280,1,0,0,0,
259541,1,0,0,0,
259811,1,0,0,0,
260076,1,0,0,0,
260334,1,0,0,0,
260585,1,0,0,0,
260852,1,0,0,0,
261132,1,0,0,0,
261417,1,0,0,0,
261690,1,0,0,0,
261968,1,0,0,0,
262241,1,0,0,0,
262516,1,0,0,0,
262789,1,0,0,0,
263062,1,0,0,0,
263350,1,0,0,0,
263641,1,0,0,0,
263931,1,0,0,0,
264217,1,0,0,0,
264499,1,0,0,0,
264772,1,0,0,0,
265062,1,0,0,0,
265354,1,0,0,0,
265651,1,0,0,0,
265947,1,0,0,0,
266238,1,0,0,0,
266528,1,0,0,0,
266815,1,0,0,0,
267099,1,0,0,0,
267375,1,0,0,0,
267679,1,0,0,0,
267978,1,0,0,0,
268260,1,0,0,0,
268544,1,0,0,0,
268823,1,0,0,0,
269102,1,0,0,0,
269384,1,0,0,0,
269669,1,0,0,0,
269960,1,0,0,0,
270257,1,0,0,0,
270550,1,0,0,0,
270821,1,0,0,0,
271094,1,0,0,0,
271370,1,0,0,0,
271656,1,0,0,0,
271952,1,0,0,0,
272244,1,0,0,0,
272533,1,0,0,0,
272839,1,0,0,0,
273123,1,0,0,0,
273394,1,0,0,0,
273675,1,0,0,0,
273967,1,0,0,0,
274264,1,0,0,0,
274560,1,0,0,0,
274852,1,0,0,0,
275131,1,0,0,0,
275403,1,0,0,0,
275671,1,0,0,0,
275949,1,0,0,0,
276235,1,0,0,0,
276516,1,0,0,0,
276804,1,0,0,0,
277102,1,0,0,0,
277388,1,0,0,0,
277649,1,0,0,0,
277923,1,0,0,0,
278211,1,0,0,0,
278518,1,0,0,0,
278814,1,0,0,0,
279098,1,0,0,0,
279382,1,0,0,0,
279576,8,0,0,0,
279918,1,0,0,0,
280209,1,0,0,0,
280511,1,0,0,0,
280814,1,0,0,0,
281110,1,0,0,0,
281402,1,0,0,0,
281682,1,0,0,0,
281955,1,0,0,0,
282232,1,0,0,0,
282513,1,0,0,0,
282801,1,0,0,0,
283096,1,0,0,0,
283389,1,0,0,0,
283672,1,0,0,0,
283944,1,0,0,0,
284216,1,0,0,0,
284491,1,0,0,0,
284778,1,0,0,0,
285073,1,0,0,0,
285363,1,0,0,0,
285653,1,0,0,0,
285936,1,0,0,0,
286210,1,0,0,0,
286486,1,0,0,0,
286763,1,0,0,0,
287051,1,0,0,0,
287353,1,0,0,0,
287655,1,0,0,0,
287944,1,0,0,0,
288225,1,0,0,0,
288506,1,0,0,0,
288792,1,0,0,0,
289076,1,0,0,0,
289373,1,0,0,0,
289667,1,0,0,0,
289971,1,0,0,0,
290257,1,0,0,0,
290538,1,0,0,0,
290813,1,0,0,0,
291109,1,0,0,0,
291407,1,0,0,0,
291696,1,0,0,0,
291990,1,0,0,0,
292281,1,0,0,0,
292566,1,0,0,0,
292844,1,0,0,0,
293123,1,0,0,0,
293411,1,0,0,0,
293712,1,0,0,0,
294011,1,0,0,0,
294296,1,0,0,0,
294581,1,0,0,0,
294857,1,0,0,0,
295142,1,0,0,0,
295421,1,0,0,0,
295717,1,0,0,0,
296013,1,0,0,0,
296319,1,0,0,0,
296611,1,0,0,0,
296889,1,0,0,0,
297169,1,0,0,0,
297450,1,0,0,0,
297738,1,0,0,0,
298032,1,0,0,0,
298334,1,0,0,0,
298627,1,0,0,0,
298920,1,0,0,0,
299206,1,0,0,0,
299483,1,0,0,0,
299756,1,0,0,0,
300051,1,0,0,0,
300360,1,0,0,0,
300662,1,0,0,0,
300940,1,0,0,0,
301210,1,0,0,0,
301494,1,0,0,0,
301781,1,0,0,0,
302063,1,0,0,0,
302347,1,0,0,0,
302644,1,0,0,0,
302947,1,0,0,0,
303240,1,0,0,0,
303503,1,0,0,0,
303773,1,0,0,0,
304065,1,0,0,0,
304361,1,0,0,0,
304639,1,0,0,0,
304923,1,0,0,0,
305211,1,0,0,0,
305497,1,0,0,0,
305709,8,0,0,0,
306035,1,0,0,0,
306337,1,0,0,0,
306641,1,0,0,0,
306943,1,0,0,0,
307234,1,0,0,0,
307514,1,0,0,0,
307745,8,0,0,0,
308062,1,0,0,0,
308349,1,0,0,0,
308625,1,0,0,0,
308912,1,0,0,0,
309216,1,0,0,0,
309515,1,0,0,0,
309780,1,0,0,0,
310052,1,0,0,0,
310332,1,0,0,0,
310626,1,0,0,0,
310914,1,0,0,0,
311199,1,0,0,0,
311488,1,0,0,0,
311783,1,0,0,0,
312062,1,0,0,0,
312327,1,0,0,0,
312605,1,0,0,0,
312825,8,0,0,0,
313193,1,0,0,0,
313508,1,0,0,0,
313808,1,0,0,0,
314090,1,0,0,0,
314373,1,0,0,0,
314664,1,0,0,0,
314952,1,0,0,0,
315245,1,0,0,0,
315541,1,0,0,0,
315843,1,0,0,0,
316136,1,0,0,0,
316415,1,0,0,0,
316693,1,0,0,0,
316980,1,0,0,0,
317266,1,0,0,0,
317560,1,0,0,0,
317785,8,0,0,0,
318145,1,0,0,0,
318438,1,0,0,0,
318729,1,0,0,0,
319011,1,0,0,0,
319223,8,0,0,0,
319586,1,0,0,0,
319904,1,0,0,0,
320205,1,0,0,0,
320493,1,0,0,0,
320786,1,0,0,0,
321072,1,0,0,0,
321371,1,0,0,0,
321663,1,0,0,0,
321968,1,0,0,0,
322275,1,0,0,0,
322573,1,0,0,0,
322856,1,0,0,0,
323138,1,0,0,0,
323425,1,0,0,0,
323730,1,0,0,0,
324044,1,0,0,0,
324340,1,0,0,0,
324641,1,0,0,0,
324929,1,0,0,0,
325215,1,0,0,0,
325495,1,0,0,0,
325782,1,0,0,0,
326088,1,0,0,0,
326395,1,0,0,0,
326698,1,0,0,0,
326986,1,0,0,0,
327276,1,0,0,0,
327566,1,0,0,0,
327858,1,0,0,0,
328149,1,0,0,0,
328452,1,0,0,0,
328753,1,0,0,0,
329056,1,0,0,0,
329339,1,0,0,0,
329619,1,0,0,0,
329912,1,0,0,0,
330216,1,0,0,0,
330524,1,0,0,0,
330819,1,0,0,0,
331124,1,0,0,0,
331411,1,0,0,0,
331704,1,0,0,0,
331989,1,0,0,0,
332279,1,0,0,0,
332588,1,0,0,0,
332897,1,0,0,0,
333199,1,0,0,0,
333479,1,0,0,0,
333768,1,0,0,0,
334056,1,0,0,0,
334348,1,0,0,0,
334643,1,0,0,0,
334943,1,0,0,0,
335248,1,0,0,0,
335543,1,0,0,0,
335823,1,0,0,0,
336100,1,0,0,0,
336385,1,0,0,0,
336679,1,0,0,0,
336979,1,0,0,0,
337281,1,0,0,0,
337571,1,0,0,0,
337862,1,0,0,0,
338145,1,0,0,0,
338432,1,0,0,0,
338720,1,0,0,0,
339025,1,0,0,0,
339327,1,0,0,0,
339634,1,0,0,0,
339926,1,0,0,0,
340205,1,0,0,0,
340492,1,0,0,0,
340780,1,0,0,0,
341075,1,0,0,0,
341379,1,0,0,0,
341684,1,0,0,0,
341974,1,0,0,0,
342266,1,0,0,0,
342547,1,0,0,0,
342822,1,0,0,0,
343115,1,0,0,0,
343409,1,0,0,0,
343705,1,0,0,0,
343995,1,0,0,0,
344279,1,0,0,0,
344556,1,0,0,0,
344843,1,0,0,0,
345129,1,0,0,0,
345415,1,0,0,0,
345722,1,0,0,0,
346017,1,0,0,0,
346308,1,0,0,0,
346596,1,0,0,0,
346804,8,0,0,0,
347147,1,0,0,0,
347454,1,0,0,0,
347759,1,0,0,0,
348063,1,0,0,0,
348367,1,0,0,0,
348658,1,0,0,0,
348934,1,0,0,0,
349221,1,0,0,0,
349502,1,0,0,0,
349804,1,0,0,0,
350112,1,0,0,0,
350410,1,0,0,0,
350692,1,0,0,0,
350980,1,0,0,0,
351265,1,0,0,0,
351481,8,0,0,0,
351821,1,0,0,0,
352115,1,0,0,0,
352416,1,0,0,0,
352711,1,0,0,0,
352986,1,0,0,0,
353257,1,0,0,0,
353547,1,0,0,0,
353832,1,0,0,0,
354128,1,0,0,0,
354426,1,0,0,0,
354717,1,0,0,0,
355015,1,0,0,0,
355302,1,0,0,0,
355579,1,0,0,0,
355858,1,0,0,0,
356165,1,0,0,0,
356463,1,0,0,0,
356758,1,0,0,0,
357045,1,0,0,0,
357327,1,0,0,0,
357610,1,0,0,0,
357900,1,0,0,0,
358186,1,0,0,0,
358482,1,0,0,0,
358788,1,0,0,0,
359086,1,0,0,0,
359365,1,0,0,0,
359634,1,0,0,0,
359903,1,0,0,0,
360182,1,0,0,0,
360471,1,0,0,0,
360763,1,0,0,0,
361051,1,0,0,0,
361343,1,0,0,0,
361625,1,0,0,0,
361894,1,0,0,0,
362162,1,0,0,0,
362451,1,0,0,0,
362732,1,0,0,0,
363026,1,0,0,0,
363318,1,0,0,0,
363606,1,0,0,0,
363878,1,0,0,0,
364158,1,0,0,0,
364446,1,0,0,0,
364730,1,0,0,0,
365022,1,0,0,0,
365330,1,0,0,0,
365640,1,0,0,0,
365914,1,0,0,0,
366191,1,0,0,0,
366482,1,0,0,0,
366778,1,0,0,0,
367063,1,0,0,0,
367363,1,0,0,0,
367674,1,0,0,0,
367960,1,0,0,0,
368247,1,0,0,0,
368531,1,0,0,0,
368824,1,0,0,0,
369109,1,0,0,0,
369410,1,0,0,0,
369714,1,0,0,0,
370010,1,0,0,0,
370279,1,0,0,0,
370557,1,0,0,0,
370842,1,0,0,0,
371131,1,0,0,0,
371406,1,0,0,0,
371703,1,0,0,0,
372007,1,0,0,0,
372299,1,0,0,0,
372557,1,0,0,0,
372834,1,0,0,0,
373123,1,0,0,0,
373428,1,0,0,0,
373712,1,0,0,0,
374000,1,0,0,0,
374303,1,0,0,0,
374595,1,0,0,0,
374855,1,0,0,0,
375124,1,0,0,0,
375412,1,0,0,0,
375715,1,0,0,0,
375998,1,0,0,0,
376287,1,0,0,0,
376576,1,0,0,0,
376861,1,0,0,0,
377081,8,0,0,0,
377404,1,0,0,0,
377700,1,0,0,0,
378005,1,0,0,0,
378308,1,0,0,0,
378608,1,0,0,0,
378886,1,0,0,0,
379159,1,0,0,0,
379439,1,0,0,0,
379731,1,0,0,0,
380023,1,0,0,0,
380312,1,0,0,0,
380610,1,0,0,0,
380898,1,0,0,0,
381173,1,0,0,0,
381452,1,0,0,0,
381724,1,0,0,0,
382014,1,0,0,0,
382308,1,0,0,0,
382607,1,0,0,0,
382895,1,0,0,0,
383183,1,0,0,0,
383457,1,0,0,0,
383743,1,0,0,0,
384027,1,0,0,0,
384317,1,0,0,0,
384614,1,0,0,0,
384915,1,0,0,0,
385205,1,0,0,0,
385487,1,0,0,0,
385768,1,0,0,0,
386050,1,0,0,0,
386349,1,0,0,0,
386649,1,0,0,0,
386941,1,0,0,0,
387241,1,0,0,0,
387533,1,0,0,0,
387811,1,0,0,0,
388084,1,0,0,0,
388373,1,0,0,0,
388671,1,0,0,0,
388979,1,0,0,0,
389277,1,0,0,0,
389563,1,0,0,0,
389860,1,0,0,0,
390149,1,0,0,0,
390434,1,0,0,0,
390730,1,0,0,0,
391039,1,0,0,0,
391344,1,0,0,0,
391641,1,0,0,0,
391924,1,0,0,0,
392204,1,0,0,0,
392493,1,0,0,0,
392780,1,0,0,0,
393077,1,0,0,0,
393377,1,0,0,0,
393674,1,0,0,0,
393957,1,0,0,0,
394243,1,0,0,0,
394519,1,0,0,0,
394801,1,0,0,0,
395096,1,0,0,0,
395401,1,0,0,0,
395697,1,0,0,0,
395989,1,0,0,0,
396268,1,0,0,0,
396553,1,0,0,0,
396845,1,0,0,0,
397133,1,0,0,0,
397335,8,0,0,0,
397704,1,0,0,0,
398007,1,0,0,0,
398294,1,0,0,0,
398569,1,0,0,0,
398853,1,0,0,0,
399139,1,0,0,0,
399436,1,0,0,0,
399730,1,0,0,0,
400023,1,0,0,0,
400321,1,0,0,0,
400599,1,0,0,0,
400877,1,0,0,0,
401163,1,0,0,0,
401453,1,0,0,0,
401757,1,0,0,0,
402061,1,0,0,0,
402361,1,0,0,0,
402646,1,0,0,0,
402933,1,0,0,0,
403215,1,0,0,0,
403509,1,0,0,0,
403804,1,0,0,0,
404100,1,0,0,0,
404403,1,0,0,0,
404697,1,0,0,0,
404980,1,0,0,0,
405255,1,0,0,0,
405543,1,0,0,0,
405836,1,0,0,0,
406131,1,0,0,0,
406425,1,0,0,0,
406715,1,0,0,0,
407005,1,0,0,0,
407288,1,0,0,0,
407559,1,0,0,0,
407849,1,0,0,0,
408151,1,0,0,0,
408452,1,0,0,0,
408746,1,0,0,0,
409030,1,0,0,0,
409314,1,0,0,0,
409597,1,0,0,0,
409881,1,0,0,0,
410177,1,0,0,0,
410477,1,0,0,0,
410781,1,0,0,0,
411071,1,0,0,0,
411352,1,0,0,0,
411632,1,0,0,0,
411915,1,0,0,0,
412206,1,0,0,0,
412512,1,0,0,0,
412816,1,0,0,0,
413109,1,0,0,0,
413402,1,0,0,0,
413692,1,0,0,0,
413969,1,0,0,0,
414249,1,0,0,0,
414541,1,0,0,0,
414847,1,0,0,0,
415143,1,0,0,0,
415430,1,0,0,0,
415703,1,0,0,0,
415994,1,0,0,0,
416275,1,0,0,0,
416555,1,0,0,0,
416849,1,0,0,0,
417152,1,0,0,0,
417445,1,0,0,0,
417728,1,0,0,0,
418006,1,0,0,0,
418283,1,0,0,0,
418577,1,0,0,0,
418866,1,0,0,0,
419155,1,0,0,0,
419453,1,0,0,0,
419745,1,0,0,0,
420022,1,0,0,0,
420302,1,0,0,0,
420583,1,0,0,0,
420873,1,0,0,0,
421173,1,0,0,0,
421474,1,0,0,0,
421766,1,0,0,0,
421994,8,0,0,0,
422320,1,0,0,0,
422603,1,0,0,0,
422818,8,0,0,0,
423164,1,0,0,0,
423462,1,0,0,0,
423767,1,0,0,0,
424064,1,0,0,0,
424339,1,0,0,0,
424616,1,0,0,0,
424893,1,0,0,0,
425188,1,0,0,0,
425491,1,0,0,0,
425788,1,0,0,0,
426078,1,0,0,0,
426380,1,0,0,0,
426661,1,0,0,0,
426938,1,0,0,0,
427225,1,0,0,0,
427523,1,0,0,0,
427827,1,0,0,0,
428129,1,0,0,0,
428413,1,0,0,0,
428698,1,0,0,0,
428992,1,0,0,0,
429276,1,0,0,0,
429558,1,0,0,0,
429867,1,0,0,0,
430165,1,0,0,0,
430470,1,0,0,0,
430754,1,0,0,0,
431034,1,0,0,0,
431315,1,0,0,0,
431615,1,0,0,0,
431910,1,0,0,0,
432209,1,0,0,0,
432509,1,0,0,0,
432799,1,0,0,0,
433082,1,0,0,0,
433364,1,0,0,0,
433648,1,0,0,0,
433841,8,0,0,0,
434211,1,0,0,0,
434513,1,0,0,0,
434810,1,0,0,0,
435096,1,0,0,0,
435370,1,0,0,0,
435658,1,0,0,0,
435951,1,0,0,0,
436149,8,0,0,0,
436512,1,0,0,0,
436819,1,0,0,0,
437118,1,0,0,0,
437400,1,0,0,0,
437682,1,0,0,0,
437965,1,0,0,0,
438268,1,0,0,0,
438570,1,0,0,0,
438865,1,0,0,0,
439158,1,0,0,0,
439454,1,0,0,0,
439740,1,0,0,0,
440022,1,0,0,0,
440312,1,0,0,0,
440622,1,0,0,0,
440934,1,0,0,0,
441230,1,0,0,0,
441518,1,0,0,0,
441814,1,0,0,0,
442109,1,0,0,0,
442406,1,0,0,0,
442623,8,0,0,0,
442992,1,0,0,0,
443304,1,0,0,0,
443606,1,0,0,0,
443888,1,0,0,0,
444175,1,0,0,0,
444473,1,0,0,0,
444705,8,0,0,0,
445060,1,0,0,0,
445362,1,0,0,0,
445658,1,0,0,0,
445948,1,0,0,0,
446226,1,0,0,0,
446507,1,0,0,0,
446800,1,0,0,0,
447104,1,0,0,0,
447402,1,0,0,0,
447695,1,0,0,0,
447980,1,0,0,0,
448264,1,0,0,0,
448548,1,0,0,0,
448834,1,0,0,0,
449137,1,0,0,0,
449441,1,0,0,0,
449748,1,0,0,0,
450038,1,0,0,0,
450325,1,0,0,0,
450607,1,0,0,0,
450895,1,0,0,0,
451193,1,0,0,0,
451501,1,0,0,0,
451805,1,0,0,0,
452101,1,0,0,0,
452390,1,0,0,0,
452678,1,0,0,0,
452959,1,0,0,0,
453250,1,0,0,0,
453545,1,0,0,0,
453852,1,0,0,0,
454154,1,0,0,0,
454444,1,0,0,0,
454651,8,0,0,0,
454997,1,0,0,0,
455293,1,0,0,0,
455588,1,0,0,0,
455888,1,0,0,0,
456189,1,0,0,0,
456487,1,0,0,0,
456771,1,0,0,0,
457045,1,0,0,0,
457333,1,0,0,0,
457634,1,0,0,0,
457937,1,0,0,0,
458168,8,0,0,0,
458524,1,0,0,0,
458816,1,0,0,0,
459103,1,0,0,0,
459380,1,0,0,0,
459664,1,0,0,0,
459966,1,0,0,0,
460275,1,0,0,0,
460571,1,0,0,0,
460858,1,0,0,0,
461148,1,0,0,0,
461433,1,0,0,0,
461721,1,0,0,0,
462014,1,0,0,0,
462314,1,0,0,0,
462621,1,0,0,0,
462919,1,0,0,0,
463197,1,0,0,0,
463481,1,0,0,0,
463765,1,0,0,0,
464049,1,0,0,0,
464361,1,0,0,0,
464664,1,0,0,0,
464960,1,0,0,0,
465257,1,0,0,0,
465538,1,0,0,0,
465820,1,0,0,0,
466104,1,0,0,0,
466404,1,0,0,0,
466707,1,0,0,0,
467010,1,0,0,0,
467308,1,0,0,0,
467589,1,0,0,0,
467878,1,0,0,0,
468164,1,0,0,0,
468459,1,0,0,0,
468762,1,0,0,0,
469065,1,0,0,0,
469363,1,0,0,0,
469660,1,0,0,0,
469942,1,0,0,0,
470230,1,0,0,0,
470530,1,0,0,0,
470837,1,0,0,0,
471139,1,0,0,0,
471444,1,0,0,0,
471727,1,0,0,0,
472019,1,0,0,0,
472304,1,0,0,0,
472589,1,0,0,0,
472887,1,0,0,0,
473201,1,0,0,0,
473498,1,0,0,0,
473792,1,0,0,0,
474074,1,0,0,0,
474362,1,0,0,0,
474652,1,0,0,0,
474942,1,0,0,0,
475237,1,0,0,0,
475547,1,0,0,0,
475851,1,0,0,0,
476136,1,0,0,0,
476417,1,0,0,0,
476705,1,0,0,0,
477000,1,0,0,0,
477307,1,0,0,0,
477604,1,0,0,0,
477898,1,0,0,0,
478195,1,0,0,0,
478480,1,0,0,0,
478757,1,0,0,0,
479040,1,0,0,0,
479332,1,0,0,0,
479633,1,0,0,0,
479931,1,0,0,0,
480218,1,0,0,0,
480494,1,0,0,0,
480779,1,0,0,0,
481057,1,0,0,0,
481340,1,0,0,0,
481641,1,0,0,0,
481941,1,0,0,0,
482239,1,0,0,0,
482525,1,0,0,0,
482801,1,0,0,0,
483071,1,0,0,0,
483350,1,0,0,0,
483634,1,0,0,0,
483930,1,0,0,0,
484220,1,0,0,0,
484507,1,0,0,0,
484786,1,0,0,0,
485073,1,0,0,0,
485352,1,0,0,0,
485641,1,0,0,0,
485939,1,0,0,0,
486253,1,0,0,0,
486556,1,0,0,0,
486844,1,0,0,0,
487129,1,0,0,0,
487423,1,0,0,0,
487719,1,0,0,0,
488018,1,0,0,0,
488320,1,0,0,0,
488635,1,0,0,0,
488931,1,0,0,0,
489214,1,0,0,0,
489497,1,0,0,0,
489788,1,0,0,0,
490090,1,0,0,0,
490393,1,0,0,0,
490695,1,0,0,0,
490994,1,0,0,0,
491287,1,0,0,0,
491570,1,0,0,0,
491850,1,0,0,0,
492145,1,0,0,0,
492445,1,0,0,0,
492750,1,0,0,0,
493046,1,0,0,0,
493340,1,0,0,0,
493623,1,0,0,0,
493914,1,0,0,0,
494199,1,0,0,0,
494491,1,0,0,0,
494789,1,0,0,0,
495085,1,0,0,0,
495370,1,0,0,0,
495649,1,0,0,0,
495924,1,0,0,0,
496201,1,0,0,0,
496499,1,0,0,0,
496712,8,0,0,0,
497074,1,0,0,0,
497376,1,0,0,0,
497664,1,0,0,0,
497945,1,0,0,0,
498230,1,0,0,0,
498517,1,0,0,0,
498812,1,0,0,0,
499114,1,0,0,0,
499417,1,0,0,0,
499701,1,0,0,0,
499987,1,0,0,0,
500268,1,0,0,0,
500549,1,0,0,0,
500847,1,0,0,0,
501145,1,0,0,0,
501448,1,0,0,0,
501745,1,0,0,0,
502039,1,0,0,0,
502316,1,0,0,0,
502601,1,0,0,0,
502888,1,0,0,0,
503191,1,0,0,0,
503496,1,0,0,0,
503794,1,0,0,0,
504080,1,0,0,0,
504372,1,0,0,0,
504654,1,0,0,0,
504936,1,0,0,0,
505227,1,0,0,0,
505528,1,0,0,0,
505830,1,0,0,0,
506125,1,0,0,0,
506398,1,0,0,0,
506679,1,0,0,0,
506969,1,0,0,0,
507256,1,0,0,0,
507552,1,0,0,0,
507855,1,0,0,0,
508159,1,0,0,0,
508455,1,0,0,0,
508744,1,0,0,0,
509019,1,0,0,0,
509319,1,0,0,0,
509623,1,0,0,0,
509923,1,0,0,0,
510220,1,0,0,0,
510520,1,0,0,0,
510804,1,0,0,0,
511093,1,0,0,0,
511371,1,0,0,0,
511660,1,0,0,0,
511970,1,0,0,0,
512277,1,0,0,0,
512567,1,0,0,0,
512851,1,0,0,0,
513135,1,0,0,0,
513424,1,0,0,0,
513719,1,0,0,0,
514014,1,0,0,0,
514318,1,0,0,0,
514628,1,0,0,0,
514919,1,0,0,0,
515194,1,0,0,0,
515476,1,0,0,0,
515762,1,0,0,0,
516065,1,0,0,0,
516371,1,0,0,0,
516667,1,0,0,0,
516970,1,0,0,0,
517266,1,0,0,0,
517553,1,0,0,0,
517832,1,0,0,0,
518127,1,0,0,0,
518426,1,0,0,0,
518734,1,0,0,0,
519028,1,0,0,0,
519307,1,0,0,0,
519594,1,0,0,0,
519882,1,0,0,0,
520149,1,0,0,0,
520463,1,0,0,0,
520768,1,0,0,0,
520982,8,0,0,0,
521342,1,0,0,0,
521627,1,0,0,0,
521913,1,0,0,0,
522209,1,0,0,0,
522511,1,0,0,0,
522815,1,0,0,0,
523116,1,0,0,0,
523416,1,0,0,0,
523708,1,0,0,0,
523999,1,0,0,0,
524279,1,0,0,0,
524577,1,0,0,0,
524890,1,0,0,0,
525198,1,0,0,0,
525492,1,0,0,0,
525780,1,0,0,0,
526064,1,0,0,0,
526355,1,0,0,0,
526646,1,0,0,0,
526941,1,0,0,0,
527243,1,0,0,0,
527549,1,0,0,0,
527838,1,0,0,0,
528118,1,0,0,0,
528402,1,0,0,0,
528689,1,0,0,0,
528991,1,0,0,0,
529293,1,0,0,0,
529599,1,0,0,0,
529897,1,0,0,0,
530191,1,0,0,0,
530471,1,0,0,0,
530762,1,0,0,0,
531057,1,0,0,0,
531358,1,0,0,0,
531668,1,0,0,0,
531967,1,0,0,0,
532257,1,0,0,0,
532544,1,0,0,0,
532828,1,0,0,0,
533121,1,0,0,0,
533416,1,0,0,0,
533719,1,0,0,0,
534012,1,0,0,0,
534307,1,0,0,0,
534592,1,0,0,0,
534873,1,0,0,0,
535161,1,0,0,0,
535459,1,0,0,0,
535768,1,0,0,0,
536067,1,0,0,0,
536364,1,0,0,0,
536644,1,0,0,0,
536930,1,0,0,0,
537212,1,0,0,0,
537505,1,0,0,0,
537810,1,0,0,0,
538115,1,0,0,0,
538421,1,0,0,0,
538707,1,0,0,0,
538993,1,0,0,0,
539278,1,0,0,0,
539575,1,0,0,0,
539874,1,0,0,0,
540172,1,0,0,0,
540472,1,0,0,0,
540768,1,0,0,0,
541052,1,0,0,0,
541334,1,0,0,0,
541616,1,0,0,0,
541916,1,0,0,0,
542226,1,0,0,0,
542529,1,0,0,0,
542825,1,0,0,0,
543116,1,0,0,0,
543407,1,0,0,0,
543689,1,0,0,0,
543983,1,0,0,0,
544285,1,0,0,0,
544590,1,0,0,0,
544895,1,0,0,0,
545182,1,0,0,0,
545455,1,0,0,0,
545741,1,0,0,0,
546022,1,0,0,0,
546306,1,0,0,0,
546599,1,0,0,0,
546792,5,1,0,0,
547199,1,0,0,0,
547482,1,0,0,0,
547758,1,0,0,0,
548032,1,0,0,0,
548334,1,0,0,0,
548632,1,0,0,0,
548926,1,0,0,0,
549217,1,0,0,0,
549502,1,0,0,0,
549784,1,0,0,0,
550070,1,0,0,0,
550348,1,0,0,0,
550639,1,0,0,0,
550952,1,0,0,0,
551253,1,0,0,0,
551532,1,0,0,0,
551815,1,0,0,0,
552096,1,0,0,0,
552385,1,0,0,0,
552680,1,0,0,0,
552974,1,0,0,0,
553282,1,0,0,0,
553588,1,0,0,0,
553876,1,0,0,0,
554154,1,0,0,0,
554439,1,0,0,0,
554723,1,0,0,0,
555026,1,0,0,0,
555323,1,0,0,0,
555613,1,0,0,0,
555914,1,0,0,0,
556203,1,0,0,0,
556486,1,0,0,0,
556765,1,0,0,0,
557056,1,0,0,0,
557361,1,0,0,0,
557667,1,0,0,0,
557962,1,0,0,0,
558238,1,0,0,0,
558527,1,0,0,0,
558813,1,0,0,0,
559102,1,0,0,0,
559395,1,0,0,0,
559695,1,0,0,0,
559997,1,0,0,0,
560295,1,0,0,0,
560576,1,0,0,0,
560846,1,0,0,0,
561141,1,0,0,0,
561435,1,0,0,0,
561732,1,0,0,0,
562019,1,0,0,0,
562308,1,0,0,0,
562591,1,0,0,0,
562812,8,0,0,0,
563141,1,0,0,0,
563423,1,0,0,0,
563731,1,0,0,0,
564030,1,0,0,0,
564320,1,0,0,0,
564601,1,0,0,0,
564883,1,0,0,0,
565164,1,0,0,0,
565452,1,0,0,0,
565741,1,0,0,0,
566041,1,0,0,0,
566259,8,0,0,0,
566615,1,0,0,0,
566899,1,0,0,0,
567185,1,0,0,0,
567379,8,0,0,0,
567721,1,0,0,0,
568027,1,0,0,0,
568326,1,0,0,0,
568624,1,0,0,0,
568919,1,0,0,0,
569204,1,0,0,0,
569482,1,0,0,0,
569762,1,0,0,0,
570058,1,0,0,0,
570366,1,0,0,0,
570668,1,0,0,0,
570957,1,0,0,0,
571246,1,0,0,0,
571538,1,0,0,0,
571831,1,0,0,0,
572122,1,0,0,0,
572428,1,0,0,0,
572730,1,0,0,0,
573040,1,0,0,0,
573328,1,0,0,0,
573608,1,0,0,0,
573893,1,0,0,0,
574193,1,0,0,0,
574429,8,0,0,0,
574786,1,0,0,0,
575095,1,0,0,0,
575387,1,0,0,0,
575678,1,0,0,0,
575959,1,0,0,0,
576248,1,0,0,0,
576551,1,0,0,0,
576862,1,0,0,0,
577162,1,0,0,0,
577456,1,0,0,0,
577741,1,0,0,0,
578025,1,0,0,0,
578310,1,0,0,0,
578600,1,0,0,0,
578901,1,0,0,0,
579204,1,0,0,0,
579448,8,0,0,0,
579790,1,0,0,0,
580074,1,0,0,0,
580357,1,0,0,0,
580648,1,0,0,0,
580947,1,0,0,0,
581246,1,0,0,0,
581543,1,0,0,0,
581834,1,0,0,0,
582119,1,0,0,0,
582395,1,0,0,0,
582668,1,0,0,0,
582919,1,0,0,0,
583239,1,0,0,0,
583539,1,0,0,0,
583821,1,0,0,0,
584097,1,0,0,0,
584363,1,0,0,0,
584635,1,0,0,0,
584903,1,0,0,0,
585175,1,0,0,0,
585454,1,0,0,0,
585731,1,0,0,0,
586011,1,0,0,0,
586275,1,0,0,0,
586525,1,0,0,0,
586771,1,0,0,0,
587030,1,0,0,0,
587299,1,0,0,0,
587572,1,0,0,0,
587843,1,0,0,0,
588113,1,0,0,0,
588377,1,0,0,0,
588643,1,0,0,0,
588905,1,0,0,0,
589177,1,0,0,0,
589454,1,0,0,0,
589747,1,0,0,0,
590040,1,0,0,0,
590316,1,0,0,0,
590588,1,0,0,0,
590863,1,0,0,0,
591143,1,0,0,0,
591417,1,0,0,0,
591706,1,0,0,0,
591999,1,0,0,0,
592288,1,0,0,0,
592571,1,0,0,0,
592853,1,0,0,0,
593068,8,0,0,0,
593387,1,0,0,0,
593683,1,0,0,0,
593990,1,0,0,0,
594280,1,0,0,0,
594563,1,0,0,0,
594855,1,0,0,0,
595127,1,0,0,0,
595402,1,0,0,0,
595690,1,0,0,0,
595992,1,0,0,0,
596278,1,0,0,0,
596584,1,0,0,0,
596879,1,0,0,0,
597136,1,0,0,0,
597402,1,0,0,0,
597670,1,0,0,0,
597925,1,0,0,0,
598186,1,0,0,0,
598458,1,0,0,0,
598713,1,0,0,0,
598969,1,0,0,0,
599222,1,0,0,0,
599468,1,0,0,0,
599703,1,0,0,0,
599952,1,0,0,0,
600214,1,0,0,0,
600483,1,0,0,0,
600739,1,0,0,0,
601011,1,0,0,0,
601273,1,0,0,0,
601537,1,0,0,0,
601799,1,0,0,0,
602064,1,0,0,0,
602330,1,0,0,0,
602610,1,0,0,0,
602893,1,0,0,0,
603179,1,0,0,0,
603455,1,0,0,0,
603722,1,0,0,0,
603989,1,0,0,0,
604277,1,0,0,0,
604564,1,0,0,0,
604844,1,0,0,0,
605148,1,0,0,0,
605459,1,0,0,0,
605737,1,0,0,0,
606008,1,0,0,0,
606293,1,0,0,0,
606587,1,0,0,0,
606880,1,0,0,0,
607178,1,0,0,0,
607475,1,0,0,0,
607766,1,0,0,0,
608043,1,0,0,0,
608309,1,0,0,0,
608576,1,0,0,0,
608853,1,0,0,0,
609136,1,0,0,0,
609425,1,0,0,0,
609715,1,0,0,0,
609987,1,0,0,0,
610262,1,0,0,0,
610544,1,0,0,0,
610823,1,0,0,0,
611108,1,0,0,0,
611399,1,0,0,0,
611695,1,0,0,0,
611986,1,0,0,0,
612263,1,0,0,0,
612539,1,0,0,0,
612819,1,0,0,0,
613108,1,0,0,0,
613399,1,0,0,0,
613693,1,0,0,0,
613983,1,0,0,0,
614259,1,0,0,0,
614539,1,0,0,0,
614816,1,0,0,0,
615089,1,0,0,0,
615370,1,0,0,0,
615676,1,0,0,0,
615968,1,0,0,0,
616250,1,0,0,0,
616526,1,0,0,0,
616803,1,0,0,0,
617086,1,0,0,0,
617366,1,0,0,0,
617655,1,0,0,0,
617949,1,0,0,0,
618248,1,0,0,0,
618528,1,0,0,0,
618804,1,0,0,0,
619081,1,0,0,0,
619362,1,0,0,0,
619653,1,0,0,0,
619951,1,0,0,0,
620249,1,0,0,0,
620541,1,0,0,0,
620826,1,0,0,0,
621102,1,0,0,0,
621379,1,0,0,0,
621661,1,0,0,0,
621944,1,0,0,0,
622247,1,0,0,0,
622541,1,0,0,0,
622823,1,0,0,0,
623089,1,0,0,0,
623367,1,0,0,0,
623638,1,0,0,0,
623917,1,0,0,0,
624191,1,0,0,0,
624482,1,0,0,0,
624765,1,0,0,0,
625048,1,0,0,0,
625309,1,0,0,0,
625579,1,0,0,0,
625853,1,0,0,0,
626138,1,0,0,0,
626427,1,0,0,0,
626715,1,0,0,0,
627000,1,0,0,0,
627281,1,0,0,0,
627555,1,0,0,0,
627827,1,0,0,0,
628103,1,0,0,0,
628391,1,0,0,0,
628688,1,0,0,0,
628981,1,0,0,0,
629171,8,0,0,0,
629494,1,0,0,0,
629761,1,0,0,0,
630027,1,0,0,0,
630289,1,0,0,0,
630561,1,0,0,0,
630836,1,0,0,0,
631110,1,0,0,0,
631377,1,0,0,0,
631636,1,0,0,0,
631898,1,0,0,0,
632156,1,0,0,0,
632414,1,0,0,0,
632688,1,0,0,0,
632958,1,0,0,0,
633229,1,0,0,0,
633498,1,0,0,0,
633768,1,0,0,0,
634028,1,0,0,0,
634283,1,0,0,0,
634545,1,0,0,0,
634826,1,0,0,0,
635107,1,0,0,0,
635394,1,0,0,0,
635684,1,0,0,0,
635966,1,0,0,0,
636238,1,0,0,0,
636520,1,0,0,0,
636811,1,0,0,0,
637105,1,0,0,0,
637399,1,0,0,0,
637704,1,0,0,0,
637997,1,0,0,0,
638282,1,0,0,0,
638560,1,0,0,0,
638846,1,0,0,0,
639140,1,0,0,0,
639446,1,0,0,0,
639744,1,0,0,0,
640039,1,0,0,0,
640329,1,0,0,0,
640615,1,0,0,0,
640900,1,0,0,0,
641178,1,0,0,0,
641479,1,0,0,0,
641777,1,0,0,0,
642065,1,0,0,0,
642337,1,0,0,0,
642614,1,0,0,0,
642887,1,0,0,0,
643164,1,0,0,0,
643439,1,0,0,0,
643721,1,0,0,0,
644005,1,0,0,0,
644286,1,0,0,0,
644547,1,0,0,0,
644807,1,0,0,0,
645063,1,0,0,0,
645320,1,0,0,0,
645581,1,0,0,0,
645863,1,0,0,0,
646132,1,0,0,0,
646393,1,0,0,0,
646658,1,0,0,0,
646916,1,0,0,0,
647168,1,0,0,0,
647414,1,0,0,0,
647672,1,0,0,0,
647934,1,0,0,0,
648203,1,0,0,0,
648477,1,0,0,0,
648733,1,0,0,0,
648978,1,0,0,0,
649232,1,0,0,0,
649484,1,0,0,0,
649734,1,0,0,0,
649991,1,0,0,0,
